nm\t A
1200.000000\t 10.000000
1199.000000\t -0.468021
1198.000000\t 0.263753
1197.000000\t 10.000000
1196.000000\t 0.164948
1195.000000\t -0.220092
1194.000000\t 0.378986
1193.000000\t 0.505607
1192.000000\t -0.158116
1191.000000\t 0.411783
1190.000000\t 0.114958
1189.000000\t 0.244669
1188.000000\t 0.529093
1187.000000\t 10.000000
1186.000000\t -0.648353
1185.000000\t 0.108957
1184.000000\t 0.435471
1183.000000\t 1.701671
1182.000000\t 10.000000
1181.000000\t -0.377648
1180.000000\t 10.000000
1179.000000\t 10.000000
1178.000000\t -0.272557
1177.000000\t 0.126542
1176.000000\t 10.000000
1175.000000\t 10.000000
1174.000000\t 0.277960
1173.000000\t 0.284211
1172.000000\t -0.160436
1171.000000\t -0.558550
1170.000000\t 10.000000
1169.000000\t 10.000000
1168.000000\t -0.012093
1167.000000\t 0.358282
1166.000000\t -0.072020
1165.000000\t -0.525739
1164.000000\t 10.000000
1163.000000\t 0.040410
1162.000000\t 10.000000
1161.000000\t 10.000000
1160.000000\t 10.000000
1159.000000\t 0.377860
1158.000000\t 1.213540
1157.000000\t 10.000000
1156.000000\t 0.047472
1155.000000\t -0.038085
1154.000000\t 10.000000
1153.000000\t 10.000000
1152.000000\t 0.215458
1151.000000\t 0.705404
1150.000000\t 10.000000
1149.000000\t 10.000000
1148.000000\t 1.131926
1147.000000\t 0.101468
1146.000000\t 0.189251
1145.000000\t 10.000000
1144.000000\t 0.018257
1143.000000\t 0.032981
1142.000000\t 0.090138
1141.000000\t 0.631611
1140.000000\t -0.343722
1139.000000\t -0.914791
1138.000000\t 0.198226
1137.000000\t 0.607359
1136.000000\t 10.000000
1135.000000\t 10.000000
1134.000000\t 0.143424
1133.000000\t -0.321717
1132.000000\t 10.000000
1131.000000\t 0.413600
1130.000000\t 0.481739
1129.000000\t -0.111165
1128.000000\t -0.339387
1127.000000\t -0.314687
1126.000000\t 0.176092
1125.000000\t 0.422616
1124.000000\t 0.387704
1123.000000\t -0.378729
1122.000000\t -0.301086
1121.000000\t 10.000000
1120.000000\t 0.353250
1119.000000\t 0.014347
1118.000000\t -0.220709
1117.000000\t 0.049785
1116.000000\t -0.101309
1115.000000\t 0.583488
1114.000000\t 0.163985
1113.000000\t -0.436579
1112.000000\t -0.531233
1111.000000\t 10.000000
1110.000000\t 10.000000
1109.000000\t 1.009914
1108.000000\t 1.153694
1107.000000\t 0.131047
1106.000000\t -0.137560
1105.000000\t -0.503965
1104.000000\t -0.388600
1103.000000\t 0.260137
1102.000000\t 0.105963
1101.000000\t -0.275961
1100.000000\t 10.000000
1099.000000\t 10.000000
1098.000000\t -0.010644
1097.000000\t 0.053958
1096.000000\t 0.370602
1095.000000\t 0.062446
1094.000000\t -0.002240
1093.000000\t 0.232321
1092.000000\t 0.465083
1091.000000\t 0.175948
1090.000000\t 0.889686
1089.000000\t 10.000000
1088.000000\t 0.180353
1087.000000\t 10.000000
1086.000000\t 10.000000
1085.000000\t 0.108734
1084.000000\t -0.405227
1083.000000\t -0.420309
1082.000000\t 0.007502
1081.000000\t -0.143970
1080.000000\t -0.064934
1079.000000\t 0.456293
1078.000000\t 1.051123
1077.000000\t 0.721173
1076.000000\t 0.053389
1075.000000\t 0.088791
1074.000000\t -0.511615
1073.000000\t -0.524805
1072.000000\t -0.006862
1071.000000\t 0.159586
1070.000000\t 10.000000
1069.000000\t 10.000000
1068.000000\t 0.478662
1067.000000\t 0.580333
1066.000000\t 0.539258
1065.000000\t -0.066843
1064.000000\t -0.141304
1063.000000\t 0.125578
1062.000000\t 0.591270
1061.000000\t -0.334250
1060.000000\t -0.353998
1059.000000\t 10.000000
1058.000000\t 10.000000
1057.000000\t 0.550511
1056.000000\t -0.064473
1055.000000\t -4.167423
1054.000000\t -4.038787
1053.000000\t -0.604634
1052.000000\t 0.262940
1051.000000\t 10.000000
1050.000000\t 10.000000
1049.000000\t 0.741090
1048.000000\t 0.170987
1047.000000\t -0.016612
1046.000000\t -0.699081
1045.000000\t -0.525432
1044.000000\t 0.842102
1043.000000\t 0.496618
1042.000000\t 0.184756
1041.000000\t -0.507005
1040.000000\t -0.214985
1039.000000\t 0.760265
1038.000000\t 0.673019
1037.000000\t 0.322763
1036.000000\t 0.442316
1035.000000\t 0.206276
1034.000000\t 0.302127
1033.000000\t 0.203535
1032.000000\t 10.000000
1031.000000\t 10.000000
1030.000000\t 0.602507
1029.000000\t 0.796483
1028.000000\t 0.587152
1027.000000\t 0.552478
1026.000000\t 0.286033
1025.000000\t 10.000000
1024.000000\t 0.289544
1023.000000\t -0.052839
1022.000000\t 0.320125
1021.000000\t -0.306951
1020.000000\t -0.154050
1019.000000\t 10.000000
1018.000000\t 1.462786
1017.000000\t 0.174573
1016.000000\t 0.079891
1015.000000\t 10.000000
1014.000000\t 0.484117
1013.000000\t 0.191844
1012.000000\t 0.742561
1011.000000\t -0.736037
1010.000000\t -0.324637
1009.000000\t 1.036080
1008.000000\t 0.313947
1007.000000\t -0.095260
1006.000000\t 1.048303
1005.000000\t -0.004450
1004.000000\t -0.271238
1003.000000\t 0.188272
1002.000000\t 0.411788
1001.000000\t -0.084402
1000.000000\t 0.402443
999.000000\t 0.215337
998.000000\t 0.257068
997.000000\t -0.496344
996.000000\t -0.865839
995.000000\t -0.257137
994.000000\t 0.359841
993.000000\t -0.050264
992.000000\t -0.069431
991.000000\t 0.206715
990.000000\t 0.316078
989.000000\t 0.404893
988.000000\t 0.151432
987.000000\t 0.017040
986.000000\t 10.000000
985.000000\t 0.536730
984.000000\t 0.195631
983.000000\t 0.402206
982.000000\t -0.276137
981.000000\t -0.020525
980.000000\t 0.954294
979.000000\t 1.058588
978.000000\t 10.000000
977.000000\t 0.843384
976.000000\t -0.026137
975.000000\t 0.449057
974.000000\t 0.143526
973.000000\t 0.365494
972.000000\t 0.031874
971.000000\t -0.124948
970.000000\t 0.017086
969.000000\t 0.179637
968.000000\t 0.201099
967.000000\t 0.921637
966.000000\t 1.002085
965.000000\t -0.461827
964.000000\t 0.417913
963.000000\t 0.143453
962.000000\t 0.383893
961.000000\t -0.391123
960.000000\t -4.201220
959.000000\t -3.049056
958.000000\t 10.000000
957.000000\t 0.649626
956.000000\t -0.311259
955.000000\t 0.411382
954.000000\t 0.598381
953.000000\t 10.000000
952.000000\t -0.234029
951.000000\t 0.420621
950.000000\t -0.289411
949.000000\t 1.082994
948.000000\t 0.424759
947.000000\t 0.384614
946.000000\t 0.128162
945.000000\t 0.441145
944.000000\t -0.051704
943.000000\t 0.421537
942.000000\t 0.274871
941.000000\t -0.061518
940.000000\t 10.000000
939.000000\t 0.015999
938.000000\t -0.238653
937.000000\t 0.324201
936.000000\t 0.368215
935.000000\t 0.058295
934.000000\t -0.339061
933.000000\t -0.105361
932.000000\t 10.000000
931.000000\t 0.339079
930.000000\t 1.793552
929.000000\t 0.598115
928.000000\t 10.000000
927.000000\t 0.166561
926.000000\t 10.000000
925.000000\t 0.772978
924.000000\t 10.000000
923.000000\t 10.000000
922.000000\t -0.040093
921.000000\t -0.151876
920.000000\t -0.143560
919.000000\t 0.600075
918.000000\t 0.026571
917.000000\t 10.000000
916.000000\t 10.000000
915.000000\t -0.121895
914.000000\t 0.859904
913.000000\t 0.720271
912.000000\t 1.860027
911.000000\t -0.377332
910.000000\t -0.122302
909.000000\t 1.282047
908.000000\t 0.348244
907.000000\t -0.359539
906.000000\t 2.217098
905.000000\t 10.000000
904.000000\t 10.000000
903.000000\t 10.000000
902.000000\t 2.406825
901.000000\t 0.318279
900.000000\t -0.208687
899.000000\t 0.043131
898.000000\t -0.012459
897.000000\t -0.144987
896.000000\t 0.788015
895.000000\t 10.000000
894.000000\t 10.000000
893.000000\t -0.013056
892.000000\t 0.106867
891.000000\t -0.041679
890.000000\t -0.042279
889.000000\t -0.451479
888.000000\t -1.055828
887.000000\t -0.128061
886.000000\t -0.290063
885.000000\t 10.000000
884.000000\t 0.342171
883.000000\t 0.084018
882.000000\t 10.000000
881.000000\t 10.000000
880.000000\t 10.000000
879.000000\t 10.000000
878.000000\t 10.000000
877.000000\t 1.438851
876.000000\t 0.218745
875.000000\t -0.055895
874.000000\t 0.165628
873.000000\t -0.082197
872.000000\t -0.077356
871.000000\t 0.982508
870.000000\t 0.114739
869.000000\t -0.027799
868.000000\t 0.087022
867.000000\t 0.211975
866.000000\t 10.000000
865.000000\t -0.120794
864.000000\t -0.018864
863.000000\t 0.227359
862.000000\t 2.430743
861.000000\t 10.000000
860.000000\t 10.000000
859.000000\t 10.000000
858.000000\t 10.000000
857.000000\t 10.000000
856.000000\t 10.000000
855.000000\t 10.000000
854.000000\t 10.000000
853.000000\t 10.000000
852.000000\t 10.000000
851.000000\t 10.000000
850.000000\t 10.000000
849.000000\t 10.000000
848.000000\t 10.000000
847.000000\t 10.000000
846.000000\t 10.000000
845.000000\t 10.000000
844.000000\t 10.000000
843.000000\t 10.000000
842.000000\t 10.000000
841.000000\t 10.000000
840.000000\t 10.000000
839.000000\t 10.000000
838.000000\t 10.000000
837.000000\t 10.000000
836.000000\t 10.000000
835.000000\t 10.000000
834.000000\t 10.000000
833.000000\t 10.000000
832.000000\t 10.000000
831.000000\t 10.000000
830.000000\t 10.000000
829.000000\t 10.000000
828.000000\t 10.000000
827.000000\t 10.000000
826.000000\t 10.000000
825.000000\t 10.000000
824.000000\t 10.000000
823.000000\t 10.000000
822.000000\t 10.000000
821.000000\t 10.000000
820.000000\t 10.000000
819.000000\t 10.000000
818.000000\t 10.000000
817.000000\t 10.000000
816.000000\t 10.000000
815.000000\t 10.000000
814.000000\t 10.000000
813.000000\t 10.000000
812.000000\t 10.000000
811.000000\t 10.000000
810.000000\t 10.000000
809.000000\t 10.000000
808.000000\t 10.000000
807.000000\t 10.000000
806.000000\t 10.000000
805.000000\t 10.000000
804.000000\t 10.000000
803.000000\t 10.000000
802.000000\t 10.000000
801.000000\t 10.000000
800.000000\t 10.000000
799.000000\t 10.000000
798.000000\t 10.000000
797.000000\t 10.000000
796.000000\t 10.000000
795.000000\t 10.000000
794.000000\t 10.000000
793.000000\t 10.000000
792.000000\t 10.000000
791.000000\t 10.000000
790.000000\t 10.000000
789.000000\t 10.000000
788.000000\t 10.000000
787.000000\t 10.000000
786.000000\t 10.000000
785.000000\t 10.000000
784.000000\t 10.000000
783.000000\t 10.000000
782.000000\t 10.000000
781.000000\t 10.000000
780.000000\t 10.000000
779.000000\t 10.000000
778.000000\t 10.000000
777.000000\t 10.000000
776.000000\t 10.000000
775.000000\t 10.000000
774.000000\t 10.000000
773.000000\t 10.000000
772.000000\t 10.000000
771.000000\t 10.000000
770.000000\t 10.000000
769.000000\t 10.000000
768.000000\t 10.000000
767.000000\t 10.000000
766.000000\t 10.000000
765.000000\t 10.000000
764.000000\t 10.000000
763.000000\t 10.000000
762.000000\t 10.000000
761.000000\t 10.000000
760.000000\t 10.000000
759.000000\t 10.000000
758.000000\t 10.000000
757.000000\t 10.000000
756.000000\t 10.000000
755.000000\t 10.000000
754.000000\t 10.000000
753.000000\t 10.000000
752.000000\t 10.000000
751.000000\t 10.000000
750.000000\t 10.000000
749.000000\t 10.000000
748.000000\t 10.000000
747.000000\t 10.000000
746.000000\t 10.000000
745.000000\t 10.000000
744.000000\t 10.000000
743.000000\t 10.000000
742.000000\t 10.000000
741.000000\t 10.000000
740.000000\t 10.000000
739.000000\t 10.000000
738.000000\t 10.000000
737.000000\t 10.000000
736.000000\t 10.000000
735.000000\t 10.000000
734.000000\t 10.000000
733.000000\t 10.000000
732.000000\t 10.000000
731.000000\t 10.000000
730.000000\t 10.000000
729.000000\t 10.000000
728.000000\t 10.000000
727.000000\t 10.000000
726.000000\t 10.000000
725.000000\t 10.000000
724.000000\t 10.000000
723.000000\t 10.000000
722.000000\t 10.000000
721.000000\t 10.000000
720.000000\t 10.000000
719.000000\t 10.000000
718.000000\t 10.000000
717.000000\t 10.000000
716.000000\t 10.000000
715.000000\t 10.000000
714.000000\t 10.000000
713.000000\t 10.000000
712.000000\t 10.000000
711.000000\t 10.000000
710.000000\t 10.000000
709.000000\t 10.000000
708.000000\t 10.000000
707.000000\t 10.000000
706.000000\t 10.000000
705.000000\t 10.000000
704.000000\t 10.000000
703.000000\t 10.000000
702.000000\t 10.000000
701.000000\t 10.000000
700.000000\t 10.000000
699.000000\t 10.000000
698.000000\t 10.000000
697.000000\t 10.000000
696.000000\t 10.000000
695.000000\t 10.000000
694.000000\t 10.000000
693.000000\t 10.000000
692.000000\t 10.000000
691.000000\t 10.000000
690.000000\t 10.000000
689.000000\t 10.000000
688.000000\t 10.000000
687.000000\t 10.000000
686.000000\t 10.000000
685.000000\t 10.000000
684.000000\t 10.000000
683.000000\t 10.000000
682.000000\t 10.000000
681.000000\t 10.000000
680.000000\t 10.000000
679.000000\t 10.000000
678.000000\t 10.000000
677.000000\t 10.000000
676.000000\t 10.000000
675.000000\t 10.000000
674.000000\t 10.000000
673.000000\t 10.000000
672.000000\t 10.000000
671.000000\t 10.000000
670.000000\t 10.000000
669.000000\t 10.000000
668.000000\t 10.000000
667.000000\t 10.000000
666.000000\t 10.000000
665.000000\t 10.000000
664.000000\t 10.000000
663.000000\t 10.000000
662.000000\t 10.000000
661.000000\t 10.000000
660.000000\t 10.000000
659.000000\t 10.000000
658.000000\t 10.000000
657.000000\t 10.000000
656.000000\t 10.000000
655.000000\t 10.000000
654.000000\t 10.000000
653.000000\t 10.000000
652.000000\t 10.000000
651.000000\t 10.000000
650.000000\t 10.000000
649.000000\t 10.000000
648.000000\t 10.000000
647.000000\t 10.000000
646.000000\t 10.000000
645.000000\t 10.000000
644.000000\t 10.000000
643.000000\t 10.000000
642.000000\t 10.000000
641.000000\t 10.000000
640.000000\t 10.000000
639.000000\t 10.000000
638.000000\t 10.000000
637.000000\t 10.000000
636.000000\t 10.000000
635.000000\t 10.000000
634.000000\t 10.000000
633.000000\t 10.000000
632.000000\t 10.000000
631.000000\t 10.000000
630.000000\t 10.000000
629.000000\t 10.000000
628.000000\t 10.000000
627.000000\t 10.000000
626.000000\t 10.000000
625.000000\t 10.000000
624.000000\t 10.000000
623.000000\t 10.000000
622.000000\t 10.000000
621.000000\t 10.000000
620.000000\t 10.000000
619.000000\t 10.000000
618.000000\t 10.000000
617.000000\t 10.000000
616.000000\t 10.000000
615.000000\t 10.000000
614.000000\t 10.000000
613.000000\t 10.000000
612.000000\t 10.000000
611.000000\t 10.000000
610.000000\t 10.000000
609.000000\t 10.000000
608.000000\t 10.000000
607.000000\t 10.000000
606.000000\t 10.000000
605.000000\t 10.000000
604.000000\t 10.000000
603.000000\t 10.000000
602.000000\t 10.000000
601.000000\t 10.000000
600.000000\t 10.000000
599.000000\t 10.000000
598.000000\t 10.000000
597.000000\t 10.000000
596.000000\t 10.000000
595.000000\t 10.000000
594.000000\t 10.000000
593.000000\t 10.000000
592.000000\t 10.000000
591.000000\t 10.000000
590.000000\t 10.000000
589.000000\t 10.000000
588.000000\t 10.000000
587.000000\t 10.000000
586.000000\t 10.000000
585.000000\t 10.000000
584.000000\t 10.000000
583.000000\t 10.000000
582.000000\t 10.000000
581.000000\t 10.000000
580.000000\t 10.000000
579.000000\t 10.000000
578.000000\t 10.000000
577.000000\t 10.000000
576.000000\t 10.000000
575.000000\t 10.000000
574.000000\t 10.000000
573.000000\t 10.000000
572.000000\t 10.000000
571.000000\t 10.000000
570.000000\t 10.000000
569.000000\t 10.000000
568.000000\t 10.000000
567.000000\t 10.000000
566.000000\t 10.000000
565.000000\t 10.000000
564.000000\t 10.000000
563.000000\t 10.000000
562.000000\t 10.000000
561.000000\t 10.000000
560.000000\t 10.000000
559.000000\t 10.000000
558.000000\t 10.000000
557.000000\t 10.000000
556.000000\t 10.000000
555.000000\t 10.000000
554.000000\t 10.000000
553.000000\t 10.000000
552.000000\t 10.000000
551.000000\t 10.000000
550.000000\t 10.000000
549.000000\t 10.000000
548.000000\t 10.000000
547.000000\t 10.000000
546.000000\t 10.000000
545.000000\t 10.000000
544.000000\t 10.000000
543.000000\t 10.000000
542.000000\t 10.000000
541.000000\t 10.000000
540.000000\t 10.000000
539.000000\t 10.000000
538.000000\t 10.000000
537.000000\t 10.000000
536.000000\t 10.000000
535.000000\t 10.000000
534.000000\t 10.000000
533.000000\t 10.000000
532.000000\t 10.000000
531.000000\t 10.000000
530.000000\t 10.000000
529.000000\t 10.000000
528.000000\t 10.000000
527.000000\t 10.000000
526.000000\t 10.000000
525.000000\t 10.000000
524.000000\t 10.000000
523.000000\t 10.000000
522.000000\t 10.000000
521.000000\t 10.000000
520.000000\t 10.000000
519.000000\t 10.000000
518.000000\t 10.000000
517.000000\t 10.000000
516.000000\t 10.000000
515.000000\t 10.000000
514.000000\t 10.000000
513.000000\t 10.000000
512.000000\t 10.000000
511.000000\t 10.000000
510.000000\t 10.000000
509.000000\t 10.000000
508.000000\t 10.000000
507.000000\t 10.000000
506.000000\t 10.000000
505.000000\t 10.000000
504.000000\t 10.000000
503.000000\t 10.000000
502.000000\t 10.000000
501.000000\t 10.000000
500.000000\t 10.000000
499.000000\t 10.000000
498.000000\t 10.000000
497.000000\t 10.000000
496.000000\t 10.000000
495.000000\t 10.000000
494.000000\t 10.000000
493.000000\t 10.000000
492.000000\t 10.000000
491.000000\t 10.000000
490.000000\t 10.000000
489.000000\t 10.000000
488.000000\t 10.000000
487.000000\t 10.000000
486.000000\t 10.000000
485.000000\t 10.000000
484.000000\t 10.000000
483.000000\t 10.000000
482.000000\t 10.000000
481.000000\t 10.000000
480.000000\t 10.000000
479.000000\t 10.000000
478.000000\t 10.000000
477.000000\t 10.000000
476.000000\t 10.000000
475.000000\t 10.000000
474.000000\t 10.000000
473.000000\t 10.000000
472.000000\t 10.000000
471.000000\t 10.000000
470.000000\t 10.000000
469.000000\t 10.000000
468.000000\t 10.000000
467.000000\t 10.000000
466.000000\t 10.000000
465.000000\t 10.000000
464.000000\t 10.000000
463.000000\t 10.000000
462.000000\t 10.000000
461.000000\t 10.000000
460.000000\t 10.000000
459.000000\t 10.000000
458.000000\t 10.000000
457.000000\t 10.000000
456.000000\t 10.000000
455.000000\t 10.000000
454.000000\t 10.000000
453.000000\t 10.000000
452.000000\t 10.000000
451.000000\t 10.000000
450.000000\t 10.000000
449.000000\t 10.000000
448.000000\t 10.000000
447.000000\t 10.000000
446.000000\t 10.000000
445.000000\t 10.000000
444.000000\t 10.000000
443.000000\t 10.000000
442.000000\t 10.000000
441.000000\t 10.000000
440.000000\t 10.000000
439.000000\t 10.000000
438.000000\t 10.000000
437.000000\t 10.000000
436.000000\t 10.000000
435.000000\t 10.000000
434.000000\t 10.000000
433.000000\t 10.000000
432.000000\t 10.000000
431.000000\t 10.000000
430.000000\t 10.000000
429.000000\t 10.000000
428.000000\t 10.000000
427.000000\t 10.000000
426.000000\t 10.000000
425.000000\t 10.000000
424.000000\t 10.000000
423.000000\t 10.000000
422.000000\t 10.000000
421.000000\t 10.000000
420.000000\t 10.000000
419.000000\t 10.000000
418.000000\t 10.000000
417.000000\t 10.000000
416.000000\t 10.000000
415.000000\t 10.000000
414.000000\t 10.000000
413.000000\t 10.000000
412.000000\t 10.000000
411.000000\t 10.000000
410.000000\t 10.000000
409.000000\t 10.000000
408.000000\t 10.000000
407.000000\t 10.000000
406.000000\t 10.000000
405.000000\t 10.000000
404.000000\t 10.000000
403.000000\t 10.000000
402.000000\t 10.000000
401.000000\t 10.000000
400.000000\t 10.000000
399.000000\t 10.000000
398.000000\t 10.000000
397.000000\t 10.000000
396.000000\t 10.000000
395.000000\t 10.000000
394.000000\t 10.000000
393.000000\t 10.000000
392.000000\t 10.000000
391.000000\t 10.000000
390.000000\t 10.000000
389.000000\t 10.000000
388.000000\t 10.000000
387.000000\t 10.000000
386.000000\t 10.000000
385.000000\t 10.000000
384.000000\t 10.000000
383.000000\t 10.000000
382.000000\t 10.000000
381.000000\t 10.000000
380.000000\t 10.000000
379.000000\t 10.000000
378.000000\t 10.000000
377.000000\t 10.000000
376.000000\t 10.000000
375.000000\t 10.000000
374.000000\t 10.000000
373.000000\t 10.000000
372.000000\t 10.000000
371.000000\t 10.000000
370.000000\t 10.000000
369.000000\t 10.000000
368.000000\t 10.000000
367.000000\t 10.000000
366.000000\t 10.000000
365.000000\t 10.000000
364.000000\t 10.000000
363.000000\t 10.000000
362.000000\t 10.000000
361.000000\t 10.000000
360.000000\t 10.000000
359.000000\t 10.000000
358.000000\t 10.000000
357.000000\t 10.000000
356.000000\t 10.000000
355.000000\t 10.000000
354.000000\t 10.000000
353.000000\t 10.000000
352.000000\t 10.000000
351.000000\t 10.000000
350.000000\t 10.000000
349.000000\t 10.000000
348.000000\t 10.000000
347.000000\t 10.000000
346.000000\t 10.000000
345.000000\t 10.000000
344.000000\t 10.000000
343.000000\t 10.000000
342.000000\t 10.000000
341.000000\t 10.000000
340.000000\t 10.000000
339.000000\t 10.000000
338.000000\t 10.000000
337.000000\t 10.000000
336.000000\t 10.000000
335.000000\t 10.000000
334.000000\t 10.000000
333.000000\t 10.000000
332.000000\t 10.000000
331.000000\t 10.000000
330.000000\t 10.000000
329.000000\t 10.000000
328.000000\t 10.000000
327.000000\t 10.000000
326.000000\t 10.000000
325.000000\t 10.000000
324.000000\t 10.000000
323.000000\t 10.000000
322.000000\t 10.000000
321.000000\t 10.000000
320.000000\t 10.000000
319.000000\t 10.000000
318.000000\t 10.000000
317.000000\t 10.000000
316.000000\t 10.000000
315.000000\t 10.000000
314.000000\t 10.000000
313.000000\t 10.000000
312.000000\t 10.000000
311.000000\t 10.000000
310.000000\t 10.000000
309.000000\t 10.000000
308.000000\t 10.000000
307.000000\t 10.000000
306.000000\t 10.000000
305.000000\t 10.000000
304.000000\t 10.000000
303.000000\t 10.000000
302.000000\t 10.000000
301.000000\t 10.000000
300.000000\t 10.000000
299.000000\t 10.000000
298.000000\t 10.000000
297.000000\t 10.000000
296.000000\t 10.000000
295.000000\t 10.000000
294.000000\t 10.000000
293.000000\t 10.000000
292.000000\t 10.000000
291.000000\t 10.000000
290.000000\t 10.000000
289.000000\t 10.000000
288.000000\t 10.000000
287.000000\t 10.000000
286.000000\t 10.000000
285.000000\t 10.000000
284.000000\t 10.000000
283.000000\t 10.000000
282.000000\t 10.000000
281.000000\t 10.000000
280.000000\t 10.000000
279.000000\t 10.000000
278.000000\t 10.000000
277.000000\t 10.000000
276.000000\t 10.000000
275.000000\t 10.000000
274.000000\t 10.000000
273.000000\t 10.000000
272.000000\t 10.000000
271.000000\t 10.000000
270.000000\t 10.000000
269.000000\t 10.000000
268.000000\t 10.000000
267.000000\t 10.000000
266.000000\t 10.000000
265.000000\t 10.000000
264.000000\t 10.000000
263.000000\t 10.000000
262.000000\t 10.000000
261.000000\t 10.000000
260.000000\t 10.000000
259.000000\t 10.000000
258.000000\t 10.000000
257.000000\t 10.000000
256.000000\t 10.000000
255.000000\t 10.000000
254.000000\t 10.000000
253.000000\t 10.000000
252.000000\t 10.000000
251.000000\t 10.000000
250.000000\t 10.000000
