nm\t A
1200.000000\t 0.048990
1199.000000\t 10.000000
1198.000000\t 10.000000
1197.000000\t 0.009760
1196.000000\t 10.000000
1195.000000\t 10.000000
1194.000000\t 10.000000
1193.000000\t 0.512782
1192.000000\t 10.000000
1191.000000\t 10.000000
1190.000000\t 10.000000
1189.000000\t 10.000000
1188.000000\t 0.431277
1187.000000\t 0.065988
1186.000000\t 10.000000
1185.000000\t 10.000000
1184.000000\t 10.000000
1183.000000\t 0.116782
1182.000000\t 0.024488
1181.000000\t 10.000000
1180.000000\t 0.000005
1179.000000\t 0.000001
1178.000000\t 10.000000
1177.000000\t 10.000000
1176.000000\t 0.052574
1175.000000\t 0.008020
1174.000000\t 10.000000
1173.000000\t 10.000000
1172.000000\t 10.000000
1171.000000\t 10.000000
1170.000000\t 0.038051
1169.000000\t 0.018030
1168.000000\t 10.000000
1167.000000\t 10.000000
1166.000000\t 10.000000
1165.000000\t 10.000000
1164.000000\t 0.031379
1163.000000\t 10.000000
1162.000000\t 0.037301
1161.000000\t 0.021371
1160.000000\t 0.004309
1159.000000\t 10.000000
1158.000000\t 0.134278
1157.000000\t 0.027383
1156.000000\t 10.000000
1155.000000\t 10.000000
1154.000000\t 0.053070
1153.000000\t 0.043534
1152.000000\t 10.000000
1151.000000\t 0.225689
1150.000000\t 0.073638
1149.000000\t 0.024007
1148.000000\t 0.141062
1147.000000\t 10.000000
1146.000000\t 10.000000
1145.000000\t 0.047519
1144.000000\t 10.000000
1143.000000\t 10.000000
1142.000000\t 10.000000
1141.000000\t 0.279766
1140.000000\t 10.000000
1139.000000\t 10.000000
1138.000000\t 10.000000
1137.000000\t 0.308750
1136.000000\t 0.034824
1135.000000\t 0.012495
1134.000000\t 10.000000
1133.000000\t 10.000000
1132.000000\t 0.050930
1131.000000\t 10.000000
1130.000000\t 0.790600
1129.000000\t 10.000000
1128.000000\t 10.000000
1127.000000\t 10.000000
1126.000000\t 10.000000
1125.000000\t 10.000000
1124.000000\t 10.000000
1123.000000\t 10.000000
1122.000000\t 10.000000
1121.000000\t 0.011854
1120.000000\t 10.000000
1119.000000\t 10.000000
1118.000000\t 10.000000
1117.000000\t 10.000000
1116.000000\t 10.000000
1115.000000\t 0.351702
1114.000000\t 10.000000
1113.000000\t 10.000000
1112.000000\t 10.000000
1111.000000\t 0.024532
1110.000000\t 0.013472
1109.000000\t 0.157858
1108.000000\t 0.144546
1107.000000\t 10.000000
1106.000000\t 10.000000
1105.000000\t 10.000000
1104.000000\t 10.000000
1103.000000\t 10.000000
1102.000000\t 10.000000
1101.000000\t 10.000000
1100.000000\t 0.022916
1099.000000\t 0.010599
1098.000000\t 10.000000
1097.000000\t 10.000000
1096.000000\t 10.000000
1095.000000\t 10.000000
1094.000000\t 10.000000
1093.000000\t 10.000000
1092.000000\t 1.484901
1091.000000\t 10.000000
1090.000000\t 0.178995
1089.000000\t 0.071098
1088.000000\t 10.000000
1087.000000\t 0.087387
1086.000000\t 0.056841
1085.000000\t 10.000000
1084.000000\t 10.000000
1083.000000\t 10.000000
1082.000000\t 10.000000
1081.000000\t 10.000000
1080.000000\t 10.000000
1079.000000\t 10.000000
1078.000000\t 0.157206
1077.000000\t 0.236318
1076.000000\t 10.000000
1075.000000\t 10.000000
1074.000000\t 10.000000
1073.000000\t 10.000000
1072.000000\t 10.000000
1071.000000\t 10.000000
1070.000000\t 0.051069
1069.000000\t 0.070758
1068.000000\t 1.064567
1067.000000\t 0.381189
1066.000000\t 0.492203
1065.000000\t 10.000000
1064.000000\t 10.000000
1063.000000\t 10.000000
1062.000000\t 0.364951
1061.000000\t 10.000000
1060.000000\t 10.000000
1059.000000\t 0.119840
1058.000000\t 0.075324
1057.000000\t 0.463228
1056.000000\t 10.000000
1055.000000\t 10.000000
1054.000000\t 10.000000
1053.000000\t 10.000000
1052.000000\t 10.000000
1051.000000\t 0.061519
1050.000000\t 0.044077
1049.000000\t 0.233957
1048.000000\t 10.000000
1047.000000\t 10.000000
1046.000000\t 10.000000
1045.000000\t 10.000000
1044.000000\t 0.199201
1043.000000\t 0.839759
1042.000000\t 10.000000
1041.000000\t 10.000000
1040.000000\t 10.000000
1039.000000\t 0.228389
1038.000000\t 0.280814
1037.000000\t 10.000000
1036.000000\t 10.000000
1035.000000\t 10.000000
1034.000000\t 10.000000
1033.000000\t 10.000000
1032.000000\t 0.094142
1031.000000\t 0.094908
1030.000000\t 0.365907
1029.000000\t 0.215806
1028.000000\t 0.396249
1027.000000\t 0.492836
1026.000000\t 10.000000
1025.000000\t 0.123595
1024.000000\t 10.000000
1023.000000\t 10.000000
1022.000000\t 10.000000
1021.000000\t 10.000000
1020.000000\t 10.000000
1019.000000\t 0.045334
1018.000000\t 0.139123
1017.000000\t 10.000000
1016.000000\t 10.000000
1015.000000\t 0.088655
1014.000000\t 1.778291
1013.000000\t 10.000000
1012.000000\t 0.244184
1011.000000\t 10.000000
1010.000000\t 10.000000
1009.000000\t 0.168849
1008.000000\t 10.000000
1007.000000\t 10.000000
1006.000000\t 0.168637
1005.000000\t 10.000000
1004.000000\t 10.000000
1003.000000\t 10.000000
1002.000000\t 10.000000
1001.000000\t 10.000000
1000.000000\t 10.000000
999.000000\t 10.000000
998.000000\t 10.000000
997.000000\t 10.000000
996.000000\t 10.000000
995.000000\t 10.000000
994.000000\t 10.000000
993.000000\t 10.000000
992.000000\t 10.000000
991.000000\t 10.000000
990.000000\t 10.000000
989.000000\t 10.000000
988.000000\t 10.000000
987.000000\t 10.000000
986.000000\t 0.091556
985.000000\t 0.628520
984.000000\t 10.000000
983.000000\t 10.000000
982.000000\t 10.000000
981.000000\t 10.000000
980.000000\t 0.181323
979.000000\t 0.166186
978.000000\t 0.047549
977.000000\t 0.207427
976.000000\t 10.000000
975.000000\t 10.000000
974.000000\t 10.000000
973.000000\t 10.000000
972.000000\t 10.000000
971.000000\t 10.000000
970.000000\t 10.000000
969.000000\t 10.000000
968.000000\t 10.000000
967.000000\t 0.188686
966.000000\t 0.174803
965.000000\t 10.000000
964.000000\t 10.000000
963.000000\t 10.000000
962.000000\t 10.000000
961.000000\t 10.000000
960.000000\t 10.000000
959.000000\t 10.000000
958.000000\t 0.006568
957.000000\t 0.324529
956.000000\t 10.000000
955.000000\t 10.000000
954.000000\t 0.403071
953.000000\t 0.065696
952.000000\t 10.000000
951.000000\t 10.000000
950.000000\t 10.000000
949.000000\t 0.166180
948.000000\t 10.000000
947.000000\t 10.000000
946.000000\t 10.000000
945.000000\t 10.000000
944.000000\t 10.000000
943.000000\t 10.000000
942.000000\t 10.000000
941.000000\t 10.000000
940.000000\t 0.009761
939.000000\t 10.000000
938.000000\t 10.000000
937.000000\t 10.000000
936.000000\t 10.000000
935.000000\t 10.000000
934.000000\t 10.000000
933.000000\t 10.000000
932.000000\t 0.061569
931.000000\t 10.000000
930.000000\t 0.137162
929.000000\t 0.402831
928.000000\t 0.022511
927.000000\t 10.000000
926.000000\t 0.108280
925.000000\t 0.237659
924.000000\t 0.071935
923.000000\t 0.116585
922.000000\t 10.000000
921.000000\t 10.000000
920.000000\t 10.000000
919.000000\t 0.397406
918.000000\t 10.000000
917.000000\t 0.101229
916.000000\t 0.055444
915.000000\t 10.000000
914.000000\t 0.208347
913.000000\t 0.266012
912.000000\t 0.137918
911.000000\t 10.000000
910.000000\t 10.000000
909.000000\t 0.154274
908.000000\t 10.000000
907.000000\t 10.000000
906.000000\t 0.135550
905.000000\t 0.013182
904.000000\t 0.019597
903.000000\t 0.089973
902.000000\t 0.135411
901.000000\t 10.000000
900.000000\t 10.000000
899.000000\t 10.000000
898.000000\t 10.000000
897.000000\t 10.000000
896.000000\t 0.232574
895.000000\t 0.052930
894.000000\t 0.019794
893.000000\t 10.000000
892.000000\t 10.000000
891.000000\t 10.000000
890.000000\t 10.000000
889.000000\t 10.000000
888.000000\t 10.000000
887.000000\t 10.000000
886.000000\t 10.000000
885.000000\t 0.124563
884.000000\t 10.000000
883.000000\t 10.000000
882.000000\t 0.016399
881.000000\t 0.004985
880.000000\t 0.008101
879.000000\t 0.010564
878.000000\t 0.080239
877.000000\t 0.149234
876.000000\t 10.000000
875.000000\t 10.000000
874.000000\t 10.000000
873.000000\t 10.000000
872.000000\t 10.000000
871.000000\t 0.185460
870.000000\t 10.000000
869.000000\t 10.000000
868.000000\t 10.000000
867.000000\t 10.000000
866.000000\t 0.100508
865.000000\t 10.000000
864.000000\t 10.000000
863.000000\t 10.000000
862.000000\t 0.138001
861.000000\t 0.070409
860.000000\t 0.071946
859.000000\t 0.079929
858.000000\t 0.086530
857.000000\t 0.076903
856.000000\t 0.078068
855.000000\t 0.077950
854.000000\t 0.082330
853.000000\t 0.082899
852.000000\t 0.080894
851.000000\t 0.081872
850.000000\t 0.080254
849.000000\t 0.079175
848.000000\t 0.079739
847.000000\t 0.078841
846.000000\t 0.078168
845.000000\t 0.081896
844.000000\t 0.082143
843.000000\t 0.078438
842.000000\t 0.078792
841.000000\t 0.078529
840.000000\t 0.078588
839.000000\t 0.078952
838.000000\t 0.079684
837.000000\t 0.079444
836.000000\t 0.078362
835.000000\t 0.078315
834.000000\t 0.079160
833.000000\t 0.079844
832.000000\t 0.080181
831.000000\t 0.079914
830.000000\t 0.079695
829.000000\t 0.079980
828.000000\t 0.080516
827.000000\t 0.080657
826.000000\t 0.080212
825.000000\t 0.080050
824.000000\t 0.079408
823.000000\t 0.079650
822.000000\t 0.080273
821.000000\t 0.080623
820.000000\t 0.079856
819.000000\t 0.080235
818.000000\t 0.080938
817.000000\t 0.080389
816.000000\t 0.080417
815.000000\t 0.079198
814.000000\t 0.079722
813.000000\t 0.080630
812.000000\t 0.079885
811.000000\t 0.079757
810.000000\t 0.080596
809.000000\t 0.080188
808.000000\t 0.080741
807.000000\t 0.080873
806.000000\t 0.080377
805.000000\t 0.080490
804.000000\t 0.079774
803.000000\t 0.079852
802.000000\t 0.080076
801.000000\t 0.080979
800.000000\t 0.080602
799.000000\t 0.080205
798.000000\t 0.080639
797.000000\t 0.080090
796.000000\t 0.080761
795.000000\t 0.080649
794.000000\t 0.080151
793.000000\t 0.080183
792.000000\t 0.080530
791.000000\t 0.081299
790.000000\t 0.080874
789.000000\t 0.081168
788.000000\t 0.081243
787.000000\t 0.080807
786.000000\t 0.081018
785.000000\t 0.081814
784.000000\t 0.082007
783.000000\t 0.080718
782.000000\t 0.081310
781.000000\t 0.082093
780.000000\t 0.081680
779.000000\t 0.081452
778.000000\t 0.081203
777.000000\t 0.080939
776.000000\t 0.080841
775.000000\t 0.080583
774.000000\t 0.081470
773.000000\t 0.081461
772.000000\t 0.081144
771.000000\t 0.081781
770.000000\t 0.081676
769.000000\t 0.081806
768.000000\t 0.081921
767.000000\t 0.082142
766.000000\t 0.082757
765.000000\t 0.082252
764.000000\t 0.082404
763.000000\t 0.081897
762.000000\t 0.081560
761.000000\t 0.082006
760.000000\t 0.082938
759.000000\t 0.082989
758.000000\t 0.082774
757.000000\t 0.082377
756.000000\t 0.082783
755.000000\t 0.082846
754.000000\t 0.082242
753.000000\t 0.082424
752.000000\t 0.082955
751.000000\t 0.082940
750.000000\t 0.082691
749.000000\t 0.082408
748.000000\t 0.082616
747.000000\t 0.082598
746.000000\t 0.082650
745.000000\t 0.082211
744.000000\t 0.082653
743.000000\t 0.082494
742.000000\t 0.082732
741.000000\t 0.082645
740.000000\t 0.082979
739.000000\t 0.083250
738.000000\t 0.082679
737.000000\t 0.082785
736.000000\t 0.083180
735.000000\t 0.083010
734.000000\t 0.082299
733.000000\t 0.083160
732.000000\t 0.082960
731.000000\t 0.082925
730.000000\t 0.083646
729.000000\t 0.083276
728.000000\t 0.083473
727.000000\t 0.083648
726.000000\t 0.083825
725.000000\t 0.083781
724.000000\t 0.083656
723.000000\t 0.084087
722.000000\t 0.084200
721.000000\t 0.083973
720.000000\t 0.083629
719.000000\t 0.083982
718.000000\t 0.084389
717.000000\t 0.084350
716.000000\t 0.084035
715.000000\t 0.083712
714.000000\t 0.084105
713.000000\t 0.084188
712.000000\t 0.083924
711.000000\t 0.084586
710.000000\t 0.084610
709.000000\t 0.084860
708.000000\t 0.084475
707.000000\t 0.084282
706.000000\t 0.084646
705.000000\t 0.084939
704.000000\t 0.085304
703.000000\t 0.084345
702.000000\t 0.085045
701.000000\t 0.084947
700.000000\t 0.084967
699.000000\t 0.085105
698.000000\t 0.085063
697.000000\t 0.084982
696.000000\t 0.084978
695.000000\t 0.084787
694.000000\t 0.085246
693.000000\t 0.085061
692.000000\t 0.085416
691.000000\t 0.085341
690.000000\t 0.085182
689.000000\t 0.085694
688.000000\t 0.085210
687.000000\t 0.085334
686.000000\t 0.086012
685.000000\t 0.085826
684.000000\t 0.085809
683.000000\t 0.085844
682.000000\t 0.085855
681.000000\t 0.085799
680.000000\t 0.085890
679.000000\t 0.086046
678.000000\t 0.086279
677.000000\t 0.086256
676.000000\t 0.085540
675.000000\t 0.086026
674.000000\t 0.086854
673.000000\t 0.086675
672.000000\t 0.086611
671.000000\t 0.086454
670.000000\t 0.086586
669.000000\t 0.086812
668.000000\t 0.086491
667.000000\t 0.086349
666.000000\t 0.086752
665.000000\t 0.087088
664.000000\t 0.087061
663.000000\t 0.086712
662.000000\t 0.087224
661.000000\t 0.086813
660.000000\t 0.086595
659.000000\t 0.086965
658.000000\t 0.087721
657.000000\t 0.087228
656.000000\t 0.087062
655.000000\t 0.087213
654.000000\t 0.087240
653.000000\t 0.087340
652.000000\t 0.086962
651.000000\t 0.087825
650.000000\t 0.087539
649.000000\t 0.087686
648.000000\t 0.088191
647.000000\t 0.087835
646.000000\t 0.087785
645.000000\t 0.087765
644.000000\t 0.088111
643.000000\t 0.088008
642.000000\t 0.088247
641.000000\t 0.088297
640.000000\t 0.088195
639.000000\t 0.088850
638.000000\t 0.088450
637.000000\t 0.088169
636.000000\t 0.088425
635.000000\t 0.088375
634.000000\t 0.088689
633.000000\t 0.088596
632.000000\t 0.089037
631.000000\t 0.088786
630.000000\t 0.088931
629.000000\t 0.089070
628.000000\t 0.089014
627.000000\t 0.089158
626.000000\t 0.089408
625.000000\t 0.089128
624.000000\t 0.089438
623.000000\t 0.089553
622.000000\t 0.089570
621.000000\t 0.089408
620.000000\t 0.089497
619.000000\t 0.089452
618.000000\t 0.089913
617.000000\t 0.089808
616.000000\t 0.089657
615.000000\t 0.089698
614.000000\t 0.089756
613.000000\t 0.089681
612.000000\t 0.090066
611.000000\t 0.089878
610.000000\t 0.090034
609.000000\t 0.090202
608.000000\t 0.090364
607.000000\t 0.090292
606.000000\t 0.090333
605.000000\t 0.090410
604.000000\t 0.090741
603.000000\t 0.090473
602.000000\t 0.090792
601.000000\t 0.090732
600.000000\t 0.090988
599.000000\t 0.091067
598.000000\t 0.090824
597.000000\t 0.090847
596.000000\t 0.091121
595.000000\t 0.091074
594.000000\t 0.091381
593.000000\t 0.091182
592.000000\t 0.091275
591.000000\t 0.091354
590.000000\t 0.091417
589.000000\t 0.091216
588.000000\t 0.091736
587.000000\t 0.092026
586.000000\t 0.091843
585.000000\t 0.091963
584.000000\t 0.092164
583.000000\t 0.091857
582.000000\t 0.092157
581.000000\t 0.092176
580.000000\t 0.092171
579.000000\t 0.092269
578.000000\t 0.092384
577.000000\t 0.092536
576.000000\t 0.092676
575.000000\t 0.092737
574.000000\t 0.092653
573.000000\t 0.092952
572.000000\t 0.092976
571.000000\t 0.093014
570.000000\t 0.093126
569.000000\t 0.093228
568.000000\t 0.093263
567.000000\t 0.093051
566.000000\t 0.093394
565.000000\t 0.093397
564.000000\t 0.093340
563.000000\t 0.093427
562.000000\t 0.093443
561.000000\t 0.093737
560.000000\t 0.093990
559.000000\t 0.093916
558.000000\t 0.093972
557.000000\t 0.093954
556.000000\t 0.094226
555.000000\t 0.094395
554.000000\t 0.094275
553.000000\t 0.094137
552.000000\t 0.094312
551.000000\t 0.094528
550.000000\t 0.094669
549.000000\t 0.094675
548.000000\t 0.094710
547.000000\t 0.094872
546.000000\t 0.094921
545.000000\t 0.094976
544.000000\t 0.095133
543.000000\t 0.095143
542.000000\t 0.095176
541.000000\t 0.095378
540.000000\t 0.095481
539.000000\t 0.095500
538.000000\t 0.095794
537.000000\t 0.095784
536.000000\t 0.095942
535.000000\t 0.095889
534.000000\t 0.095720
533.000000\t 0.096034
532.000000\t 0.096303
531.000000\t 0.096292
530.000000\t 0.096296
529.000000\t 0.096381
528.000000\t 0.096473
527.000000\t 0.096528
526.000000\t 0.096635
525.000000\t 0.096623
524.000000\t 0.096571
523.000000\t 0.096827
522.000000\t 0.097069
521.000000\t 0.097224
520.000000\t 0.097206
519.000000\t 0.097139
518.000000\t 0.097231
517.000000\t 0.097258
516.000000\t 0.097421
515.000000\t 0.097535
514.000000\t 0.097598
513.000000\t 0.097629
512.000000\t 0.097522
511.000000\t 0.097552
510.000000\t 0.097707
509.000000\t 0.097812
508.000000\t 0.098005
507.000000\t 0.098078
506.000000\t 0.098151
505.000000\t 0.098230
504.000000\t 0.098145
503.000000\t 0.098226
502.000000\t 0.098367
501.000000\t 0.098609
500.000000\t 0.098761
499.000000\t 0.098753
498.000000\t 0.098935
497.000000\t 0.099014
496.000000\t 0.099117
495.000000\t 0.099197
494.000000\t 0.099269
493.000000\t 0.099416
492.000000\t 0.099409
491.000000\t 0.099573
490.000000\t 0.099779
489.000000\t 0.099860
488.000000\t 0.100102
487.000000\t 0.100335
486.000000\t 0.100259
485.000000\t 0.100238
484.000000\t 0.100190
483.000000\t 0.100265
482.000000\t 0.100399
481.000000\t 0.100601
480.000000\t 0.100625
479.000000\t 0.100704
478.000000\t 0.100918
477.000000\t 0.101044
476.000000\t 0.101083
475.000000\t 0.101266
474.000000\t 0.101299
473.000000\t 0.101296
472.000000\t 0.101578
471.000000\t 0.101768
470.000000\t 0.101828
469.000000\t 0.101988
468.000000\t 0.102174
467.000000\t 0.102310
466.000000\t 0.102309
465.000000\t 0.102384
464.000000\t 0.102309
463.000000\t 0.102434
462.000000\t 0.102537
461.000000\t 0.102752
460.000000\t 0.103017
459.000000\t 0.103195
458.000000\t 0.103172
457.000000\t 0.103247
456.000000\t 0.103110
455.000000\t 0.103051
454.000000\t 0.103366
453.000000\t 0.103574
452.000000\t 0.103680
451.000000\t 0.103488
450.000000\t 0.103504
449.000000\t 0.103708
448.000000\t 0.103733
447.000000\t 0.103863
446.000000\t 0.104110
445.000000\t 0.104151
444.000000\t 0.104093
443.000000\t 0.104095
442.000000\t 0.104568
441.000000\t 0.104815
440.000000\t 0.104537
439.000000\t 0.104547
438.000000\t 0.104608
437.000000\t 0.104903
436.000000\t 0.105150
435.000000\t 0.104964
434.000000\t 0.104982
433.000000\t 0.105076
432.000000\t 0.105028
431.000000\t 0.105508
430.000000\t 0.105692
429.000000\t 0.105458
428.000000\t 0.105718
427.000000\t 0.105574
426.000000\t 0.105546
425.000000\t 0.105919
424.000000\t 0.105763
423.000000\t 0.105876
422.000000\t 0.106126
421.000000\t 0.105906
420.000000\t 0.105976
419.000000\t 0.105875
418.000000\t 0.106009
417.000000\t 0.105762
416.000000\t 0.106108
415.000000\t 0.106332
414.000000\t 0.106570
413.000000\t 0.106522
412.000000\t 0.106468
411.000000\t 0.106610
410.000000\t 0.106608
409.000000\t 0.106559
408.000000\t 0.106547
407.000000\t 0.107007
406.000000\t 0.106850
405.000000\t 0.107059
404.000000\t 0.107121
403.000000\t 0.106795
402.000000\t 0.106966
401.000000\t 0.106943
400.000000\t 0.107181
399.000000\t 0.107027
398.000000\t 0.106963
397.000000\t 0.107307
396.000000\t 0.107317
395.000000\t 0.107279
394.000000\t 0.107356
393.000000\t 0.107122
392.000000\t 0.107327
391.000000\t 0.107166
390.000000\t 0.107132
389.000000\t 0.107348
388.000000\t 0.107241
387.000000\t 0.107421
386.000000\t 0.107492
385.000000\t 0.107552
384.000000\t 0.107547
383.000000\t 0.107671
382.000000\t 0.107709
381.000000\t 0.107629
380.000000\t 0.107490
379.000000\t 0.107288
378.000000\t 0.107620
377.000000\t 0.107647
376.000000\t 0.107131
375.000000\t 0.107835
374.000000\t 0.107968
373.000000\t 0.107839
372.000000\t 0.107640
371.000000\t 0.107455
370.000000\t 0.106932
369.000000\t 0.107306
368.000000\t 0.107101
367.000000\t 0.107733
366.000000\t 0.107768
365.000000\t 0.108014
364.000000\t 0.107537
363.000000\t 0.107788
362.000000\t 0.107405
361.000000\t 0.106676
360.000000\t 0.107898
359.000000\t 0.107329
358.000000\t 0.107485
357.000000\t 0.107629
356.000000\t 0.107215
355.000000\t 0.107144
354.000000\t 0.107321
353.000000\t 0.107071
352.000000\t 0.106995
351.000000\t 0.107208
350.000000\t 0.106263
349.000000\t 0.107086
348.000000\t 0.107144
347.000000\t 0.107446
346.000000\t 0.107221
345.000000\t 0.106520
344.000000\t 0.106720
343.000000\t 0.106186
342.000000\t 0.106216
341.000000\t 0.106708
340.000000\t 0.107422
339.000000\t 0.106340
338.000000\t 0.106067
337.000000\t 0.105788
336.000000\t 0.105773
335.000000\t 0.106936
334.000000\t 0.105895
333.000000\t 0.105108
332.000000\t 0.105533
331.000000\t 0.105255
330.000000\t 0.105730
329.000000\t 0.105795
328.000000\t 0.105069
327.000000\t 0.105206
326.000000\t 0.104990
325.000000\t 0.104558
324.000000\t 0.103901
323.000000\t 0.104298
322.000000\t 0.103581
321.000000\t 0.103978
320.000000\t 0.102486
319.000000\t 0.101398
318.000000\t 0.100253
317.000000\t 0.100807
316.000000\t 0.099645
315.000000\t 0.098187
314.000000\t 0.098085
313.000000\t 0.097436
312.000000\t 0.096235
311.000000\t 0.095566
310.000000\t 0.094217
309.000000\t 0.092812
308.000000\t 0.090465
307.000000\t 0.089390
306.000000\t 0.088480
305.000000\t 0.086615
304.000000\t 0.085637
303.000000\t 0.083111
302.000000\t 0.080869
301.000000\t 0.079795
300.000000\t 0.077362
299.000000\t 0.074880
298.000000\t 0.072712
297.000000\t 0.069603
296.000000\t 0.067772
295.000000\t 0.064546
294.000000\t 0.062683
293.000000\t 0.060233
292.000000\t 0.057028
291.000000\t 0.054984
290.000000\t 0.052661
289.000000\t 0.049175
288.000000\t 0.046675
287.000000\t 0.043383
286.000000\t 0.040915
285.000000\t 0.038110
284.000000\t 0.035891
283.000000\t 0.033019
282.000000\t 0.030352
281.000000\t 0.028040
280.000000\t 0.026158
279.000000\t 0.024214
278.000000\t 0.022419
277.000000\t 0.020429
276.000000\t 0.018619
275.000000\t 0.017480
274.000000\t 0.016132
273.000000\t 0.014921
272.000000\t 0.013758
271.000000\t 0.012973
270.000000\t 0.012083
269.000000\t 0.011265
268.000000\t 0.010958
267.000000\t 0.010397
266.000000\t 0.010001
265.000000\t 0.009904
264.000000\t 0.009566
263.000000\t 0.009456
262.000000\t 0.009014
261.000000\t 0.009299
260.000000\t 0.009208
259.000000\t 0.009313
258.000000\t 0.009094
257.000000\t 0.009044
256.000000\t 0.009130
255.000000\t 0.009342
254.000000\t 0.009589
253.000000\t 0.009560
252.000000\t 0.009833
251.000000\t 0.010139
250.000000\t 0.010393
