nm\t A
1400.000000\t 0.029224
1399.000000\t 0.030216
1398.000000\t 0.031028
1397.000000\t 0.032014
1396.000000\t 0.032788
1395.000000\t 0.033856
1394.000000\t 0.034504
1393.000000\t 0.035510
1392.000000\t 0.036174
1391.000000\t 0.036888
1390.000000\t 0.037460
1389.000000\t 0.038147
1388.000000\t 0.038303
1387.000000\t 0.038628
1386.000000\t 0.038554
1385.000000\t 0.038474
1384.000000\t 0.037984
1383.000000\t 0.037631
1382.000000\t 0.036764
1381.000000\t 0.036097
1380.000000\t 0.035000
1379.000000\t 0.034113
1378.000000\t 0.032870
1377.000000\t 0.031892
1376.000000\t 0.030489
1375.000000\t 0.029226
1374.000000\t 0.028084
1373.000000\t 0.026941
1372.000000\t 0.025714
1371.000000\t 0.024565
1370.000000\t 0.023352
1369.000000\t 0.022528
1368.000000\t 0.021479
1367.000000\t 0.020725
1366.000000\t 0.019898
1365.000000\t 0.019336
1364.000000\t 0.018705
1363.000000\t 0.018392
1362.000000\t 0.017888
1361.000000\t 0.017821
1360.000000\t 0.017496
1359.000000\t 0.017235
1358.000000\t 0.017193
1357.000000\t 0.017203
1356.000000\t 0.017326
1355.000000\t 0.017238
1354.000000\t 0.017263
1353.000000\t 0.017296
1352.000000\t 0.017473
1351.000000\t 0.017383
1350.000000\t 0.017465
1349.000000\t 0.017542
1348.000000\t 0.017563
1347.000000\t 0.017601
1346.000000\t 0.017722
1345.000000\t 0.017802
1344.000000\t 0.017581
1343.000000\t 0.017649
1342.000000\t 0.017774
1341.000000\t 0.017854
1340.000000\t 0.017539
1339.000000\t 0.017643
1338.000000\t 0.017574
1337.000000\t 0.017430
1336.000000\t 0.017538
1335.000000\t 0.017575
1334.000000\t 0.017312
1333.000000\t 0.017258
1332.000000\t 0.017353
1331.000000\t 0.017282
1330.000000\t 0.017127
1329.000000\t 0.017077
1328.000000\t 0.017130
1327.000000\t 0.017187
1326.000000\t 0.016997
1325.000000\t 0.016913
1324.000000\t 0.017014
1323.000000\t 0.017062
1322.000000\t 0.016953
1321.000000\t 0.017016
1320.000000\t 0.016777
1319.000000\t 0.016867
1318.000000\t 0.016865
1317.000000\t 0.016882
1316.000000\t 0.016819
1315.000000\t 0.016874
1314.000000\t 0.016676
1313.000000\t 0.016666
1312.000000\t 0.016770
1311.000000\t 0.016795
1310.000000\t 0.016761
1309.000000\t 0.016824
1308.000000\t 0.016670
1307.000000\t 0.016752
1306.000000\t 0.016702
1305.000000\t 0.016691
1304.000000\t 0.016687
1303.000000\t 0.016673
1302.000000\t 0.016600
1301.000000\t 0.016738
1300.000000\t 0.016615
1299.000000\t 0.016673
1298.000000\t 0.016633
1297.000000\t 0.016622
1296.000000\t 0.016575
1295.000000\t 0.016662
1294.000000\t 0.016598
1293.000000\t 0.016733
1292.000000\t 0.016697
1291.000000\t 0.016616
1290.000000\t 0.016482
1289.000000\t 0.016479
1288.000000\t 0.016622
1287.000000\t 0.016654
1286.000000\t 0.016616
1285.000000\t 0.016622
1284.000000\t 0.016614
1283.000000\t 0.016644
1282.000000\t 0.016647
1281.000000\t 0.016673
1280.000000\t 0.016590
1279.000000\t 0.016630
1278.000000\t 0.016498
1277.000000\t 0.016490
1276.000000\t 0.016677
1275.000000\t 0.016685
1274.000000\t 0.016663
1273.000000\t 0.016758
1272.000000\t 0.016684
1271.000000\t 0.016681
1270.000000\t 0.016626
1269.000000\t 0.016628
1268.000000\t 0.016754
1267.000000\t 0.016763
1266.000000\t 0.016797
1265.000000\t 0.016794
1264.000000\t 0.016834
1263.000000\t 0.016839
1262.000000\t 0.016834
1261.000000\t 0.016896
1260.000000\t 0.016943
1259.000000\t 0.016961
1258.000000\t 0.017030
1257.000000\t 0.017040
1256.000000\t 0.016950
1255.000000\t 0.017026
1254.000000\t 0.017159
1253.000000\t 0.017222
1252.000000\t 0.017249
1251.000000\t 0.017182
1250.000000\t 0.017265
1249.000000\t 0.017304
1248.000000\t 0.017292
1247.000000\t 0.017247
1246.000000\t 0.017230
1245.000000\t 0.017137
1244.000000\t 0.017120
1243.000000\t 0.017056
1242.000000\t 0.017118
1241.000000\t 0.017100
1240.000000\t 0.017017
1239.000000\t 0.016825
1238.000000\t 0.016770
1237.000000\t 0.016735
1236.000000\t 0.016778
1235.000000\t 0.016599
1234.000000\t 0.016563
1233.000000\t 0.016518
1232.000000\t 0.016426
1231.000000\t 0.016336
1230.000000\t 0.016400
1229.000000\t 0.016267
1228.000000\t 0.016228
1227.000000\t 0.016170
1226.000000\t 0.016164
1225.000000\t 0.016125
1224.000000\t 0.016125
1223.000000\t 0.015955
1222.000000\t 0.016023
1221.000000\t 0.015980
1220.000000\t 0.015987
1219.000000\t 0.015932
1218.000000\t 0.015761
1217.000000\t 0.015764
1216.000000\t 0.015909
1215.000000\t 0.015796
1214.000000\t 0.015830
1213.000000\t 0.015881
1212.000000\t 0.015872
1211.000000\t 0.015742
1210.000000\t 0.015846
1209.000000\t 0.015773
1208.000000\t 0.015780
1207.000000\t 0.015724
1206.000000\t 0.015727
1205.000000\t 0.015705
1204.000000\t 0.015726
1203.000000\t 0.015628
1202.000000\t 0.015717
1201.000000\t 0.015610
1200.000000\t 0.015600
1199.000000\t 0.015451
1198.000000\t 0.015570
1197.000000\t 0.015488
1196.000000\t 0.015645
1195.000000\t 0.015530
1194.000000\t 0.015644
1193.000000\t 0.015579
1192.000000\t 0.015523
1191.000000\t 0.015417
1190.000000\t 0.015335
1189.000000\t 0.015320
1188.000000\t 0.015435
1187.000000\t 0.015372
1186.000000\t 0.015431
1185.000000\t 0.015301
1184.000000\t 0.015432
1183.000000\t 0.015257
1182.000000\t 0.015376
1181.000000\t 0.015271
1180.000000\t 0.015295
1179.000000\t 0.015199
1178.000000\t 0.015285
1177.000000\t 0.015125
1176.000000\t 0.015298
1175.000000\t 0.015095
1174.000000\t 0.015225
1173.000000\t 0.015183
1172.000000\t 0.015195
1171.000000\t 0.015022
1170.000000\t 0.015194
1169.000000\t 0.015057
1168.000000\t 0.015076
1167.000000\t 0.015014
1166.000000\t 0.015055
1165.000000\t 0.014840
1164.000000\t 0.014983
1163.000000\t 0.014834
1162.000000\t 0.015044
1161.000000\t 0.014835
1160.000000\t 0.014879
1159.000000\t 0.014763
1158.000000\t 0.014848
1157.000000\t 0.014644
1156.000000\t 0.014877
1155.000000\t 0.014545
1154.000000\t 0.014656
1153.000000\t 0.014657
1152.000000\t 0.014641
1151.000000\t 0.014442
1150.000000\t 0.014682
1149.000000\t 0.014437
1148.000000\t 0.014587
1147.000000\t 0.014422
1146.000000\t 0.014503
1145.000000\t 0.014212
1144.000000\t 0.014449
1143.000000\t 0.014211
1142.000000\t 0.014472
1141.000000\t 0.014240
1140.000000\t 0.014292
1139.000000\t 0.014202
1138.000000\t 0.014263
1137.000000\t 0.014066
1136.000000\t 0.014243
1135.000000\t 0.013947
1134.000000\t 0.014123
1133.000000\t 0.014073
1132.000000\t 0.014027
1131.000000\t 0.013891
1130.000000\t 0.014096
1129.000000\t 0.013847
1128.000000\t 0.014015
1127.000000\t 0.013667
1126.000000\t 0.013889
1125.000000\t 0.013732
1124.000000\t 0.013835
1123.000000\t 0.013667
1122.000000\t 0.013827
1121.000000\t 0.013655
1120.000000\t 0.013683
1119.000000\t 0.013595
1118.000000\t 0.013737
1117.000000\t 0.013507
1116.000000\t 0.013727
1115.000000\t 0.013493
1114.000000\t 0.013692
1113.000000\t 0.013528
1112.000000\t 0.013559
1111.000000\t 0.013459
1110.000000\t 0.013665
1109.000000\t 0.013437
1108.000000\t 0.013520
1107.000000\t 0.013404
1106.000000\t 0.013260
1105.000000\t 0.013216
1104.000000\t 0.013484
1103.000000\t 0.013192
1102.000000\t 0.013381
1101.000000\t 0.013215
1100.000000\t 0.013256
1099.000000\t 0.013092
1098.000000\t 0.012983
1097.000000\t 0.012984
1096.000000\t 0.013151
1095.000000\t 0.012963
1094.000000\t 0.013061
1093.000000\t 0.012837
1092.000000\t 0.012940
1091.000000\t 0.012797
1090.000000\t 0.013003
1089.000000\t 0.012766
1088.000000\t 0.012771
1087.000000\t 0.012565
1086.000000\t 0.012703
1085.000000\t 0.012617
1084.000000\t 0.012622
1083.000000\t 0.012450
1082.000000\t 0.012340
1081.000000\t 0.012345
1080.000000\t 0.012360
1079.000000\t 0.012256
1078.000000\t 0.012110
1077.000000\t 0.012163
1076.000000\t 0.012302
1075.000000\t 0.012090
1074.000000\t 0.012174
1073.000000\t 0.011913
1072.000000\t 0.011988
1071.000000\t 0.011912
1070.000000\t 0.012017
1069.000000\t 0.011737
1068.000000\t 0.011635
1067.000000\t 0.011736
1066.000000\t 0.011746
1065.000000\t 0.011656
1064.000000\t 0.011656
1063.000000\t 0.011405
1062.000000\t 0.011558
1061.000000\t 0.011416
1060.000000\t 0.011339
1059.000000\t 0.011148
1058.000000\t 0.011246
1057.000000\t 0.011116
1056.000000\t 0.011184
1055.000000\t 0.010948
1054.000000\t 0.011129
1053.000000\t 0.011026
1052.000000\t 0.010877
1051.000000\t 0.010742
1050.000000\t 0.010819
1049.000000\t 0.010606
1048.000000\t 0.010526
1047.000000\t 0.010597
1046.000000\t 0.010614
1045.000000\t 0.010435
1044.000000\t 0.010241
1043.000000\t 0.010313
1042.000000\t 0.010320
1041.000000\t 0.010089
1040.000000\t 0.010075
1039.000000\t 0.009990
1038.000000\t 0.009952
1037.000000\t 0.009752
1036.000000\t 0.009810
1035.000000\t 0.009626
1034.000000\t 0.009736
1033.000000\t 0.009649
1032.000000\t 0.009481
1031.000000\t 0.009256
1030.000000\t 0.009261
1029.000000\t 0.009310
1028.000000\t 0.009235
1027.000000\t 0.009035
1026.000000\t 0.008885
1025.000000\t 0.008937
1024.000000\t 0.008880
1023.000000\t 0.008710
1022.000000\t 0.008617
1021.000000\t 0.008463
1020.000000\t 0.008485
1019.000000\t 0.008243
1018.000000\t 0.008159
1017.000000\t 0.008074
1016.000000\t 0.008001
1015.000000\t 0.008059
1014.000000\t 0.007954
1013.000000\t 0.007793
1012.000000\t 0.007685
1011.000000\t 0.007587
1010.000000\t 0.007507
1009.000000\t 0.007354
1008.000000\t 0.007368
1007.000000\t 0.007170
1006.000000\t 0.006982
1005.000000\t 0.006949
1004.000000\t 0.006867
1003.000000\t 0.006639
1002.000000\t 0.006474
1001.000000\t 0.006455
1000.000000\t 0.006358
999.000000\t 0.006309
998.000000\t 0.006201
997.000000\t 0.005952
996.000000\t 0.005810
995.000000\t 0.005694
994.000000\t 0.005575
993.000000\t 0.005453
992.000000\t 0.005401
991.000000\t 0.005482
990.000000\t 0.005360
989.000000\t 0.005256
988.000000\t 0.005100
987.000000\t 0.004990
986.000000\t 0.004890
985.000000\t 0.004858
984.000000\t 0.004708
983.000000\t 0.004648
982.000000\t 0.004528
981.000000\t 0.004377
980.000000\t 0.004181
979.000000\t 0.004170
978.000000\t 0.003988
977.000000\t 0.003971
976.000000\t 0.003815
975.000000\t 0.003687
974.000000\t 0.003629
973.000000\t 0.003513
972.000000\t 0.003253
971.000000\t 0.003250
970.000000\t 0.003125
969.000000\t 0.002978
968.000000\t 0.002821
967.000000\t 0.002747
966.000000\t 0.002490
965.000000\t 0.002430
964.000000\t 0.002253
963.000000\t 0.002189
962.000000\t 0.001928
961.000000\t 0.001824
960.000000\t 0.001593
959.000000\t 0.001545
958.000000\t 0.001311
957.000000\t 0.001354
956.000000\t 0.001085
955.000000\t 0.001061
954.000000\t 0.000866
953.000000\t 0.000758
952.000000\t 0.000455
951.000000\t 0.000473
950.000000\t 0.000240
949.000000\t 0.000111
948.000000\t -0.000179
947.000000\t -0.000280
946.000000\t -0.000589
945.000000\t -0.000601
944.000000\t -0.000941
943.000000\t -0.001021
942.000000\t -0.001319
941.000000\t -0.001416
940.000000\t -0.001751
939.000000\t -0.001804
938.000000\t -0.002226
937.000000\t -0.002288
936.000000\t -0.002674
935.000000\t -0.002773
934.000000\t -0.003039
933.000000\t -0.003135
932.000000\t -0.003560
931.000000\t -0.003581
930.000000\t -0.003918
929.000000\t -0.004110
928.000000\t -0.004462
927.000000\t -0.004655
926.000000\t -0.004973
925.000000\t -0.005100
924.000000\t -0.005472
923.000000\t -0.005540
922.000000\t -0.006004
921.000000\t -0.006070
920.000000\t -0.006519
919.000000\t -0.006578
918.000000\t -0.007021
917.000000\t -0.006999
916.000000\t -0.007520
915.000000\t -0.007586
914.000000\t -0.008009
913.000000\t -0.008144
912.000000\t -0.008568
911.000000\t -0.008488
910.000000\t -0.009036
909.000000\t -0.009124
908.000000\t -0.009627
907.000000\t -0.009650
906.000000\t -0.010199
905.000000\t -0.010302
904.000000\t -0.010827
903.000000\t -0.010712
902.000000\t -0.011200
901.000000\t -0.011433
900.000000\t -0.011985
899.000000\t -0.011952
898.000000\t -0.012546
897.000000\t -0.012454
896.000000\t -0.013041
895.000000\t -0.013165
894.000000\t -0.013501
893.000000\t -0.013731
892.000000\t -0.014222
891.000000\t -0.014177
890.000000\t -0.014742
889.000000\t -0.014846
888.000000\t -0.015442
887.000000\t -0.015574
886.000000\t -0.016076
885.000000\t -0.016154
884.000000\t -0.016775
883.000000\t -0.016755
882.000000\t -0.017334
881.000000\t -0.017445
880.000000\t -0.017940
879.000000\t -0.017958
878.000000\t -0.018754
877.000000\t -0.018523
876.000000\t -0.019201
875.000000\t -0.019309
874.000000\t -0.019814
873.000000\t -0.019954
872.000000\t -0.020471
871.000000\t -0.020414
870.000000\t -0.021332
869.000000\t -0.021040
868.000000\t -0.021676
867.000000\t -0.021662
866.000000\t -0.022301
865.000000\t -0.022317
864.000000\t -0.022913
863.000000\t -0.022764
862.000000\t -0.023518
861.000000\t -0.023461
860.000000\t -0.024017
859.000000\t -0.024422
858.000000\t -0.019471
857.000000\t -0.014923
856.000000\t -0.022399
855.000000\t -0.021718
854.000000\t -0.019608
853.000000\t -0.020632
852.000000\t -0.027656
851.000000\t -0.019491
850.000000\t -0.027670
849.000000\t -0.021924
848.000000\t -0.022930
847.000000\t -0.023749
846.000000\t -0.024270
845.000000\t -0.023980
844.000000\t -0.023517
843.000000\t -0.021965
842.000000\t -0.027357
841.000000\t -0.025480
840.000000\t -0.025797
839.000000\t -0.024125
838.000000\t -0.025271
837.000000\t -0.023308
836.000000\t -0.022885
835.000000\t -0.025065
834.000000\t -0.022403
833.000000\t -0.022540
832.000000\t -0.024707
831.000000\t -0.023249
830.000000\t -0.024763
829.000000\t -0.024571
828.000000\t -0.025355
827.000000\t -0.025766
826.000000\t -0.023163
825.000000\t -0.024089
824.000000\t -0.024544
823.000000\t -0.022989
822.000000\t -0.023340
821.000000\t -0.023825
820.000000\t -0.023120
819.000000\t -0.024731
818.000000\t -0.025251
817.000000\t -0.024199
816.000000\t -0.023413
815.000000\t -0.024252
814.000000\t -0.024583
813.000000\t -0.023744
812.000000\t -0.023343
811.000000\t -0.022909
810.000000\t -0.022972
809.000000\t -0.023217
808.000000\t -0.022554
807.000000\t -0.024223
806.000000\t -0.023891
805.000000\t -0.023292
804.000000\t -0.022523
803.000000\t -0.023129
802.000000\t -0.022081
801.000000\t -0.022479
800.000000\t -0.024083
799.000000\t -0.023283
798.000000\t -0.023199
797.000000\t -0.022717
796.000000\t -0.022123
795.000000\t -0.021670
794.000000\t -0.021747
793.000000\t -0.022751
792.000000\t -0.023152
791.000000\t -0.021829
790.000000\t -0.020912
789.000000\t -0.020783
788.000000\t -0.019904
787.000000\t -0.021162
786.000000\t -0.021128
785.000000\t -0.020457
784.000000\t -0.020349
783.000000\t -0.020402
782.000000\t -0.020319
781.000000\t -0.020385
780.000000\t -0.020893
779.000000\t -0.020277
778.000000\t -0.019476
777.000000\t -0.019771
776.000000\t -0.019394
775.000000\t -0.018462
774.000000\t -0.018335
773.000000\t -0.019804
772.000000\t -0.019466
771.000000\t -0.018861
770.000000\t -0.018745
769.000000\t -0.017937
768.000000\t -0.019021
767.000000\t -0.018941
766.000000\t -0.018406
765.000000\t -0.018129
764.000000\t -0.018776
763.000000\t -0.019311
762.000000\t -0.017940
761.000000\t -0.017767
760.000000\t -0.018471
759.000000\t -0.018763
758.000000\t -0.017585
757.000000\t -0.017879
756.000000\t -0.018539
755.000000\t -0.017749
754.000000\t -0.017358
753.000000\t -0.017308
752.000000\t -0.018034
751.000000\t -0.017395
750.000000\t -0.016868
749.000000\t -0.016988
748.000000\t -0.017269
747.000000\t -0.017618
746.000000\t -0.017167
745.000000\t -0.016802
744.000000\t -0.016593
743.000000\t -0.016328
742.000000\t -0.016975
741.000000\t -0.016971
740.000000\t -0.016849
739.000000\t -0.017333
738.000000\t -0.017596
737.000000\t -0.016686
736.000000\t -0.016193
735.000000\t -0.016503
734.000000\t -0.016813
733.000000\t -0.016121
732.000000\t -0.015597
731.000000\t -0.016000
730.000000\t -0.016643
729.000000\t -0.016723
728.000000\t -0.016849
727.000000\t -0.016789
726.000000\t -0.016421
725.000000\t -0.016398
724.000000\t -0.016332
723.000000\t -0.016501
722.000000\t -0.016494
721.000000\t -0.016253
720.000000\t -0.015985
719.000000\t -0.015581
718.000000\t -0.015977
717.000000\t -0.015711
716.000000\t -0.015718
715.000000\t -0.016333
714.000000\t -0.016144
713.000000\t -0.016013
712.000000\t -0.016052
711.000000\t -0.016109
710.000000\t -0.016136
709.000000\t -0.016061
708.000000\t -0.015880
707.000000\t -0.016244
706.000000\t -0.016663
705.000000\t -0.016214
704.000000\t -0.015789
703.000000\t -0.015786
702.000000\t -0.016376
701.000000\t -0.016435
700.000000\t -0.015955
699.000000\t -0.016450
698.000000\t -0.016662
697.000000\t -0.016088
696.000000\t -0.016040
695.000000\t -0.016430
694.000000\t -0.016498
693.000000\t -0.016473
692.000000\t -0.016492
691.000000\t -0.016635
690.000000\t -0.016954
689.000000\t -0.016721
688.000000\t -0.016444
687.000000\t -0.016983
686.000000\t -0.016789
685.000000\t -0.016600
684.000000\t -0.016847
683.000000\t -0.017311
682.000000\t -0.017369
681.000000\t -0.016790
680.000000\t -0.017121
679.000000\t -0.017059
678.000000\t -0.016942
677.000000\t -0.017513
676.000000\t -0.017388
675.000000\t -0.017476
674.000000\t -0.017639
673.000000\t -0.017990
672.000000\t -0.017806
671.000000\t -0.017777
670.000000\t -0.017784
669.000000\t -0.017856
668.000000\t -0.018055
667.000000\t -0.018029
666.000000\t -0.018018
665.000000\t -0.018311
664.000000\t -0.018456
663.000000\t -0.018528
662.000000\t -0.018490
661.000000\t -0.018606
660.000000\t -0.018670
659.000000\t -0.018729
658.000000\t -0.018945
657.000000\t -0.019089
656.000000\t -0.018787
655.000000\t -0.019051
654.000000\t -0.019291
653.000000\t -0.019154
652.000000\t -0.019810
651.000000\t -0.019916
650.000000\t -0.019639
649.000000\t -0.019297
648.000000\t -0.019484
647.000000\t -0.019774
646.000000\t -0.020380
645.000000\t -0.020549
644.000000\t -0.020559
643.000000\t -0.020783
642.000000\t -0.021019
641.000000\t -0.020804
640.000000\t -0.020833
639.000000\t -0.021047
638.000000\t -0.021326
637.000000\t -0.021270
636.000000\t -0.021371
635.000000\t -0.021381
634.000000\t -0.021872
633.000000\t -0.021834
632.000000\t -0.021893
631.000000\t -0.022206
630.000000\t -0.022470
629.000000\t -0.022534
628.000000\t -0.022342
627.000000\t -0.022517
626.000000\t -0.023031
625.000000\t -0.023183
624.000000\t -0.023337
623.000000\t -0.023637
622.000000\t -0.024097
621.000000\t -0.023868
620.000000\t -0.024129
619.000000\t -0.024244
618.000000\t -0.024614
617.000000\t -0.024690
616.000000\t -0.024699
615.000000\t -0.025092
614.000000\t -0.025332
613.000000\t -0.025507
612.000000\t -0.025574
611.000000\t -0.025621
610.000000\t -0.025994
609.000000\t -0.026093
608.000000\t -0.026330
607.000000\t -0.026798
606.000000\t -0.026847
605.000000\t -0.026903
604.000000\t -0.026800
603.000000\t -0.027180
602.000000\t -0.027553
601.000000\t -0.027981
600.000000\t -0.028173
599.000000\t -0.028315
598.000000\t -0.028790
597.000000\t -0.028399
596.000000\t -0.029028
595.000000\t -0.029214
594.000000\t -0.029405
593.000000\t -0.029696
592.000000\t -0.029876
591.000000\t -0.029870
590.000000\t -0.030184
589.000000\t -0.030561
588.000000\t -0.030679
587.000000\t -0.030663
586.000000\t -0.031184
585.000000\t -0.031320
584.000000\t -0.031820
583.000000\t -0.032137
582.000000\t -0.031952
581.000000\t -0.032551
580.000000\t -0.032709
579.000000\t -0.032870
578.000000\t -0.033225
577.000000\t -0.033707
576.000000\t -0.033747
575.000000\t -0.034026
574.000000\t -0.034586
573.000000\t -0.034596
572.000000\t -0.034849
571.000000\t -0.034820
570.000000\t -0.035483
569.000000\t -0.035495
568.000000\t -0.035815
567.000000\t -0.036117
566.000000\t -0.036106
565.000000\t -0.036689
564.000000\t -0.036911
563.000000\t -0.037243
562.000000\t -0.037620
561.000000\t -0.037880
560.000000\t -0.037954
559.000000\t -0.038392
558.000000\t -0.038474
557.000000\t -0.038931
556.000000\t -0.039315
555.000000\t -0.039716
554.000000\t -0.039969
553.000000\t -0.040085
552.000000\t -0.040565
551.000000\t -0.040522
550.000000\t -0.041097
549.000000\t -0.041382
548.000000\t -0.041601
547.000000\t -0.041637
546.000000\t -0.042217
545.000000\t -0.042505
544.000000\t -0.042729
543.000000\t -0.042991
542.000000\t -0.043545
541.000000\t -0.043687
540.000000\t -0.044108
539.000000\t -0.044658
538.000000\t -0.044550
537.000000\t -0.045024
536.000000\t -0.045491
535.000000\t -0.045612
534.000000\t -0.045964
533.000000\t -0.046313
532.000000\t -0.046601
531.000000\t -0.047007
530.000000\t -0.047350
529.000000\t -0.047434
528.000000\t -0.047926
527.000000\t -0.048301
526.000000\t -0.048471
525.000000\t -0.048650
524.000000\t -0.048940
523.000000\t -0.049450
522.000000\t -0.049618
521.000000\t -0.050018
520.000000\t -0.050121
519.000000\t -0.050375
518.000000\t -0.050894
517.000000\t -0.051076
516.000000\t -0.051499
515.000000\t -0.051746
514.000000\t -0.052127
513.000000\t -0.052237
512.000000\t -0.052584
511.000000\t -0.052802
510.000000\t -0.052993
509.000000\t -0.053475
508.000000\t -0.053685
507.000000\t -0.053937
506.000000\t -0.054181
505.000000\t -0.054324
504.000000\t -0.054652
503.000000\t -0.054834
502.000000\t -0.055242
501.000000\t -0.055590
500.000000\t -0.055942
499.000000\t -0.056154
498.000000\t -0.056604
497.000000\t -0.056792
496.000000\t -0.057167
495.000000\t -0.057542
494.000000\t -0.057803
493.000000\t -0.057822
492.000000\t -0.058213
491.000000\t -0.058596
490.000000\t -0.058906
489.000000\t -0.059395
488.000000\t -0.059600
487.000000\t -0.059816
486.000000\t -0.060299
485.000000\t -0.060711
484.000000\t -0.061134
483.000000\t -0.061408
482.000000\t -0.061727
481.000000\t -0.062184
480.000000\t -0.062436
479.000000\t -0.062861
478.000000\t -0.063051
477.000000\t -0.063396
476.000000\t -0.063613
475.000000\t -0.063790
474.000000\t -0.063902
473.000000\t -0.063973
472.000000\t -0.064662
471.000000\t -0.064765
470.000000\t -0.064838
469.000000\t -0.065282
468.000000\t -0.065315
467.000000\t -0.065557
466.000000\t -0.065825
465.000000\t -0.065966
464.000000\t -0.066163
463.000000\t -0.066330
462.000000\t -0.066538
461.000000\t -0.066807
460.000000\t -0.066796
459.000000\t -0.066963
458.000000\t -0.067100
457.000000\t -0.067441
456.000000\t -0.067736
455.000000\t -0.067965
454.000000\t -0.067982
453.000000\t -0.068108
452.000000\t -0.068171
451.000000\t -0.068384
450.000000\t -0.068613
449.000000\t -0.068680
448.000000\t -0.068745
447.000000\t -0.069022
446.000000\t -0.069151
445.000000\t -0.069191
444.000000\t -0.069555
443.000000\t -0.069938
442.000000\t -0.069848
441.000000\t -0.069742
440.000000\t -0.069875
439.000000\t -0.070128
438.000000\t -0.070245
437.000000\t -0.070385
436.000000\t -0.070560
435.000000\t -0.070540
434.000000\t -0.070571
433.000000\t -0.070613
432.000000\t -0.070666
431.000000\t -0.070796
430.000000\t -0.070929
429.000000\t -0.070942
428.000000\t -0.070909
427.000000\t -0.070981
426.000000\t -0.071077
425.000000\t -0.071091
424.000000\t -0.071123
423.000000\t -0.070951
422.000000\t -0.070839
421.000000\t -0.071006
420.000000\t -0.070851
419.000000\t -0.070925
418.000000\t -0.071097
417.000000\t -0.070990
416.000000\t -0.071103
415.000000\t -0.071132
414.000000\t -0.070957
413.000000\t -0.070943
412.000000\t -0.070958
411.000000\t -0.070856
410.000000\t -0.070706
409.000000\t -0.070627
408.000000\t -0.070532
407.000000\t -0.070518
406.000000\t -0.070185
405.000000\t -0.069901
404.000000\t -0.070209
403.000000\t -0.070212
402.000000\t -0.069877
401.000000\t -0.069773
400.000000\t -0.069704
399.000000\t -0.069563
398.000000\t -0.069459
397.000000\t -0.069227
396.000000\t -0.068881
395.000000\t -0.068705
394.000000\t -0.068534
393.000000\t -0.068151
392.000000\t -0.068015
391.000000\t -0.067631
390.000000\t -0.067335
389.000000\t -0.067293
388.000000\t -0.067063
387.000000\t -0.066573
386.000000\t -0.065990
385.000000\t -0.065738
384.000000\t -0.065365
383.000000\t -0.064915
382.000000\t -0.064730
381.000000\t -0.064385
380.000000\t -0.064055
379.000000\t -0.063634
378.000000\t -0.063120
377.000000\t -0.063313
376.000000\t -0.063343
375.000000\t -0.062935
374.000000\t -0.062942
373.000000\t -0.063544
372.000000\t -0.063003
371.000000\t -0.061873
370.000000\t -0.061193
369.000000\t -0.060925
368.000000\t -0.060917
367.000000\t -0.060597
366.000000\t -0.059924
365.000000\t -0.059022
364.000000\t -0.058404
363.000000\t -0.057985
362.000000\t -0.057798
361.000000\t -0.057515
360.000000\t -0.056492
359.000000\t -0.055578
358.000000\t -0.055206
357.000000\t -0.054930
356.000000\t -0.053939
355.000000\t -0.053273
354.000000\t -0.052505
353.000000\t -0.052196
352.000000\t -0.051527
351.000000\t -0.050494
350.000000\t -0.049209
349.000000\t -0.048183
348.000000\t -0.047872
347.000000\t -0.047740
346.000000\t -0.045622
345.000000\t -0.043828
344.000000\t -0.043393
343.000000\t -0.042592
342.000000\t -0.042120
341.000000\t -0.040889
340.000000\t -0.038147
339.000000\t -0.037084
338.000000\t -0.035621
337.000000\t -0.034074
336.000000\t -0.031746
335.000000\t -0.030078
334.000000\t -0.028161
333.000000\t -0.025783
332.000000\t -0.023907
331.000000\t -0.022063
330.000000\t -0.019704
329.000000\t -0.016313
328.000000\t -0.012884
327.000000\t -0.009629
326.000000\t -0.006637
325.000000\t -0.003645
324.000000\t 0.000635
323.000000\t 0.004470
322.000000\t 0.009135
321.000000\t 0.014888
320.000000\t 0.019017
319.000000\t 0.024493
318.000000\t 0.029830
317.000000\t 0.036932
316.000000\t 0.043284
315.000000\t 0.050597
314.000000\t 0.058328
313.000000\t 0.065894
312.000000\t 0.075673
311.000000\t 0.084747
310.000000\t 0.094089
309.000000\t 0.104706
308.000000\t 0.116353
307.000000\t 0.129090
306.000000\t 0.141362
305.000000\t 0.155077
304.000000\t 0.167809
303.000000\t 0.183757
302.000000\t 0.200704
301.000000\t 0.217257
300.000000\t 0.235440
299.000000\t 0.255004
298.000000\t 0.275691
297.000000\t 0.296479
296.000000\t 0.318646
295.000000\t 0.341912
294.000000\t 0.365989
293.000000\t 0.391557
292.000000\t 0.419853
291.000000\t 0.446144
290.000000\t 0.475827
289.000000\t 0.505850
288.000000\t 0.535144
287.000000\t 0.566680
286.000000\t 0.599222
285.000000\t 0.632000
284.000000\t 0.665462
283.000000\t 0.698525
282.000000\t 0.732537
281.000000\t 0.767192
280.000000\t 0.798384
279.000000\t 0.832063
278.000000\t 0.863149
277.000000\t 0.892963
276.000000\t 0.923713
275.000000\t 0.952266
274.000000\t 0.980033
273.000000\t 1.004369
272.000000\t 1.025092
271.000000\t 1.048167
270.000000\t 1.066756
269.000000\t 1.082452
268.000000\t 1.095155
267.000000\t 1.109149
266.000000\t 1.122111
265.000000\t 1.129280
264.000000\t 1.135803
263.000000\t 1.138860
262.000000\t 1.143984
261.000000\t 1.146302
260.000000\t 1.149293
259.000000\t 1.150010
258.000000\t 1.150053
257.000000\t 1.151324
256.000000\t 1.150740
255.000000\t 1.145451
254.000000\t 1.141294
253.000000\t 1.139440
252.000000\t 1.135851
251.000000\t 1.133411
250.000000\t 1.126569
